Typical Measured Spectrum of Semrock FF01-515/588/700 Optical Filter	
For wavelengths between 320 and 1120 nm, values near or below 3e-7 (Optical Density 6.5) are measurement noise limited.
For wavelengths < 320 nm and > 1120 nm, values near or below 3e-6 (Optical Density 5.5) are measurement noise limited. 
Data format:  Wavelength (nm) <tab> Transmission (0 to 1)
290.0	4.473e-07
290.2	4.4148e-07
290.4	4.3574e-07
290.6	4.3007e-07
290.8	4.2448e-07
291.0	4.1896e-07
291.2	4.1351e-07
291.4	4.0813e-07
291.6	4.0282e-07
291.8	3.9758e-07
292.0	3.9241e-07
292.2	3.873e-07
292.4	3.8226e-07
292.6	3.7729e-07
292.8	3.7238e-07
293.0	3.6919e-07
293.2	3.7307e-07
293.4	3.7698e-07
293.6	3.8095e-07
293.8	3.8495e-07
294.0	3.8899e-07
294.2	3.9308e-07
294.4	3.9721e-07
294.6	4.0138e-07
294.8	4.056e-07
295.0	4.0986e-07
295.2	4.5405e-07
295.4	5.0301e-07
295.6	5.5725e-07
295.8	6.1734e-07
296.0	6.839e-07
296.2	7.5765e-07
296.4	8.3934e-07
296.6	9.2985e-07
296.8	1.0301e-06
297.0	1.1412e-06
297.2	1.2642e-06
297.4	1.4006e-06
297.6	1.5516e-06
297.8	1.7189e-06
298.0	1.8963e-06
298.2	1.9947e-06
298.4	2.0982e-06
298.6	2.207e-06
298.8	2.3215e-06
299.0	2.4419e-06
299.2	2.5685e-06
299.4	2.7018e-06
299.6	2.8419e-06
299.8	2.9893e-06
300.0	3.1443e-06
300.2	3.3074e-06
300.4	3.479e-06
300.6	3.6594e-06
300.8	3.8492e-06
301.0	4.0489e-06
301.2	4.2589e-06
301.4	4.4798e-06
301.6	4.7122e-06
301.8	4.7362e-06
302.0	4.482e-06
302.2	4.2414e-06
302.4	4.0137e-06
302.6	3.7982e-06
302.8	3.5943e-06
303.0	3.4013e-06
303.2	3.2187e-06
303.4	3.0459e-06
303.6	2.8824e-06
303.8	2.7276e-06
304.0	2.5812e-06
304.2	2.4426e-06
304.4	2.3115e-06
304.6	2.1874e-06
304.8	2.07e-06
305.0	1.9588e-06
305.2	2.3617e-06
305.4	2.8475e-06
305.6	3.2363e-06
305.8	3.0349e-06
306.0	2.8461e-06
306.2	2.669e-06
306.4	2.5029e-06
306.6	2.3472e-06
306.8	2.2012e-06
307.0	2.0642e-06
307.2	1.9358e-06
307.4	1.8153e-06
307.6	1.7024e-06
307.8	1.5964e-06
308.0	1.4971e-06
308.2	1.404e-06
308.4	1.3166e-06
308.6	1.2347e-06
308.8	1.1579e-06
309.0	1.0858e-06
309.2	1.0182e-06
309.4	1.065e-06
309.6	1.2117e-06
309.8	1.3785e-06
310.0	1.5683e-06
310.2	1.7842e-06
310.4	2.0298e-06
310.6	2.3093e-06
310.8	2.6272e-06
311.0	2.9889e-06
311.2	3.4004e-06
311.4	3.8686e-06
311.6	4.4012e-06
311.8	5.0071e-06
312.0	5.6965e-06
312.2	6.4808e-06
312.4	7.373e-06
312.6	8.3881e-06
312.8	9.543e-06
313.0	1.0857e-05
313.2	9.9904e-06
313.4	8.9906e-06
313.6	8.0909e-06
313.8	7.2812e-06
314.0	6.5525e-06
314.2	5.8968e-06
314.4	5.3067e-06
314.6	4.7756e-06
314.8	4.2977e-06
315.0	3.8676e-06
315.2	3.4806e-06
315.4	3.1323e-06
315.6	2.8188e-06
315.8	2.5367e-06
316.0	2.2829e-06
316.2	2.0544e-06
316.4	1.8488e-06
316.6	1.6638e-06
316.8	1.5038e-06
317.0	1.3769e-06
317.2	1.2608e-06
317.4	1.1544e-06
317.6	1.057e-06
317.8	9.6785e-07
318.0	8.862e-07
318.2	8.1144e-07
318.4	7.4298e-07
318.6	6.8031e-07
318.8	6.2291e-07
319.0	5.7036e-07
319.2	5.2225e-07
319.4	4.7819e-07
319.6	4.3785e-07
319.8	4.0091e-07
320.0	3.6709e-07
320.2	3.3612e-07
320.4	3.0776e-07
320.6	3.0389e-07
320.8	3.1521e-07
321.0	3.2695e-07
321.2	3.3913e-07
321.4	3.5177e-07
321.6	3.6487e-07
321.8	3.7846e-07
322.0	3.9256e-07
322.2	4.0719e-07
322.4	4.2236e-07
322.6	4.381e-07
322.8	4.5442e-07
323.0	4.7135e-07
323.2	4.8891e-07
323.4	5.0712e-07
323.6	5.2601e-07
323.8	5.4561e-07
324.0	5.6594e-07
324.2	5.8702e-07
324.4	5.6188e-07
324.6	5.3625e-07
324.8	5.1179e-07
325.0	4.8845e-07
325.2	4.6617e-07
325.4	4.449e-07
325.6	4.2461e-07
325.8	4.0524e-07
326.0	3.8676e-07
326.2	3.6912e-07
326.4	3.5228e-07
326.6	3.3621e-07
326.8	3.2087e-07
327.0	3.0624e-07
327.2	2.9227e-07
327.4	2.7894e-07
327.6	2.6621e-07
327.8	2.5407e-07
328.0	2.5174e-07
328.2	2.6869e-07
328.4	2.8679e-07
328.6	3.061e-07
328.8	3.2671e-07
329.0	3.4871e-07
329.2	3.7219e-07
329.4	3.9725e-07
329.6	4.24e-07
329.8	4.5255e-07
330.0	4.8303e-07
330.2	5.1555e-07
330.4	5.5027e-07
330.6	5.8733e-07
330.8	6.2687e-07
331.0	6.6909e-07
331.2	7.1414e-07
331.4	7.6223e-07
331.6	8.1356e-07
331.8	8.8843e-07
332.0	9.793e-07
332.2	1.0795e-06
332.4	1.1899e-06
332.6	1.3116e-06
332.8	1.4457e-06
333.0	1.5936e-06
333.2	1.7566e-06
333.4	1.9363e-06
333.6	2.1343e-06
333.8	2.3526e-06
334.0	2.5932e-06
334.2	2.8585e-06
334.4	3.1508e-06
334.6	3.4731e-06
334.8	3.8284e-06
335.0	4.2199e-06
335.2	5.1704e-06
335.4	6.3349e-06
335.6	6.9454e-06
335.8	5.6387e-06
336.0	4.5779e-06
336.2	3.7166e-06
336.4	3.0174e-06
336.6	2.4497e-06
336.8	1.9889e-06
337.0	1.6147e-06
337.2	1.3109e-06
337.4	1.0643e-06
337.6	8.6406e-07
337.8	7.015e-07
338.0	5.6952e-07
338.2	4.6238e-07
338.4	3.7539e-07
338.6	3.0477e-07
338.8	2.4743e-07
339.0	2.0088e-07
339.2	1.6309e-07
339.4	1.5027e-07
339.6	1.4914e-07
339.8	1.4802e-07
340.0	1.4691e-07
340.2	1.4581e-07
340.4	1.4472e-07
340.6	1.4363e-07
340.8	1.4255e-07
341.0	1.4148e-07
341.2	1.4042e-07
341.4	1.3937e-07
341.6	1.3832e-07
341.8	1.3729e-07
342.0	1.3626e-07
342.2	1.3524e-07
342.4	1.3422e-07
342.6	1.3321e-07
342.8	1.3221e-07
343.0	1.3122e-07
343.2	1.5052e-07
343.4	1.7266e-07
343.6	1.9806e-07
343.8	2.2719e-07
344.0	2.606e-07
344.2	2.9893e-07
344.4	3.429e-07
344.6	3.9333e-07
344.8	4.5118e-07
345.0	5.1754e-07
345.2	5.9366e-07
345.4	6.8098e-07
345.6	7.8114e-07
345.8	8.9602e-07
346.0	1.0278e-06
346.2	1.179e-06
346.4	1.3524e-06
346.6	1.5513e-06
346.8	1.6e-06
347.0	1.3875e-06
347.2	1.2032e-06
347.4	1.0434e-06
347.6	9.0478e-07
347.8	7.846e-07
348.0	6.8038e-07
348.2	5.9e-07
348.4	5.1164e-07
348.6	4.4368e-07
348.8	3.8474e-07
349.0	3.3364e-07
349.2	2.8932e-07
349.4	2.5089e-07
349.6	2.1757e-07
349.8	1.8867e-07
350.0	1.6361e-07
350.2	1.4187e-07
350.4	1.2303e-07
350.6	1.2785e-07
350.8	1.4046e-07
351.0	1.5431e-07
351.2	1.6953e-07
351.4	1.8625e-07
351.6	2.0462e-07
351.8	2.248e-07
352.0	2.4696e-07
352.2	2.7132e-07
352.4	2.9808e-07
352.6	3.2747e-07
352.8	3.5977e-07
353.0	3.9524e-07
353.2	4.3422e-07
353.4	4.7704e-07
353.6	5.2409e-07
353.8	5.7577e-07
354.0	6.3255e-07
354.2	6.891e-07
354.4	7.1699e-07
354.6	7.4601e-07
354.8	7.7621e-07
355.0	8.0763e-07
355.2	8.4032e-07
355.4	8.7433e-07
355.6	9.0972e-07
355.8	9.4654e-07
356.0	9.8485e-07
356.2	1.0247e-06
356.4	1.0662e-06
356.6	1.1093e-06
356.8	1.1542e-06
357.0	1.201e-06
357.2	1.2496e-06
357.4	1.3002e-06
357.6	1.3528e-06
357.8	1.4075e-06
358.0	1.4528e-06
358.2	1.4898e-06
358.4	1.5279e-06
358.6	1.5668e-06
358.8	1.6068e-06
359.0	1.6478e-06
359.2	1.6899e-06
359.4	1.733e-06
359.6	1.7772e-06
359.8	1.8226e-06
360.0	1.8691e-06
360.2	1.9168e-06
360.4	1.9657e-06
360.6	2.0158e-06
360.8	2.0673e-06
361.0	2.12e-06
361.2	2.1741e-06
361.4	2.2296e-06
361.6	2.2865e-06
361.8	2.0027e-06
362.0	1.7442e-06
362.2	1.5191e-06
362.4	1.323e-06
362.6	1.1522e-06
362.8	1.0035e-06
363.0	8.7394e-07
363.2	7.6113e-07
363.4	6.6288e-07
363.6	5.7731e-07
363.8	5.0279e-07
364.0	4.3789e-07
364.2	3.8136e-07
364.4	3.3214e-07
364.6	2.8926e-07
364.8	2.5192e-07
365.0	2.194e-07
365.2	2.0233e-07
365.4	1.8658e-07
365.6	1.7206e-07
365.8	1.5867e-07
366.0	1.4632e-07
366.2	1.3494e-07
366.4	1.2443e-07
366.6	1.1475e-07
366.8	1.0582e-07
367.0	1.008e-07
367.2	1.0061e-07
367.4	1.0043e-07
367.6	1.0024e-07
367.8	1.0005e-07
368.0	9.9864e-08
368.2	9.9677e-08
368.4	9.949e-08
368.6	9.9304e-08
368.8	9.9118e-08
369.0	9.8933e-08
369.2	9.8747e-08
369.4	9.8563e-08
369.6	9.8378e-08
369.8	9.8194e-08
370.0	9.801e-08
370.2	9.7827e-08
370.4	9.7644e-08
370.6	9.7461e-08
370.8	1.0833e-07
371.0	1.24e-07
371.2	1.4194e-07
371.4	1.6249e-07
371.6	1.86e-07
371.8	2.1291e-07
372.0	2.4372e-07
372.2	2.7899e-07
372.4	3.1936e-07
372.6	3.6558e-07
372.8	4.1848e-07
373.0	4.7904e-07
373.2	5.4836e-07
373.4	6.2771e-07
373.6	7.1854e-07
373.8	8.2252e-07
374.0	9.4155e-07
374.2	1.0778e-06
374.4	1.1862e-06
374.6	1.0699e-06
374.8	9.6509e-07
375.0	8.7051e-07
375.2	7.852e-07
375.4	7.0825e-07
375.6	6.3884e-07
375.8	5.7623e-07
376.0	5.1976e-07
376.2	4.6883e-07
376.4	4.2288e-07
376.6	3.8144e-07
376.8	3.4406e-07
377.0	3.1034e-07
377.2	2.7992e-07
377.4	2.5249e-07
377.6	2.2775e-07
377.8	2.0543e-07
378.0	1.853e-07
378.2	1.7295e-07
378.4	1.659e-07
378.6	1.5915e-07
378.8	1.5267e-07
379.0	1.4645e-07
379.2	1.4049e-07
379.4	1.3477e-07
379.6	1.2928e-07
379.8	1.2401e-07
380.0	1.1896e-07
380.2	1.1412e-07
380.4	1.0947e-07
380.6	1.0501e-07
380.8	1.0074e-07
381.0	9.6635e-08
381.2	9.27e-08
381.4	8.8925e-08
381.6	8.5304e-08
381.8	8.183e-08
382.0	9.1486e-08
382.2	1.0302e-07
382.4	1.1601e-07
382.6	1.3064e-07
382.8	1.4711e-07
383.0	1.6566e-07
383.2	1.8654e-07
383.4	2.1007e-07
383.6	2.3655e-07
383.8	2.6638e-07
384.0	2.9996e-07
384.2	3.3779e-07
384.4	3.8038e-07
384.6	4.2834e-07
384.8	4.8234e-07
385.0	5.4316e-07
385.2	6.1165e-07
385.4	6.8877e-07
385.6	7.0928e-07
385.8	6.2306e-07
386.0	5.4733e-07
386.2	4.808e-07
386.4	4.2236e-07
386.6	3.7102e-07
386.8	3.2593e-07
387.0	2.8631e-07
387.2	2.5151e-07
387.4	2.2094e-07
387.6	1.9408e-07
387.8	1.7049e-07
388.0	1.4977e-07
388.2	1.3157e-07
388.4	1.1557e-07
388.6	1.0153e-07
388.8	8.9185e-08
389.0	7.8345e-08
389.2	6.8822e-08
389.4	6.3527e-08
389.6	5.9489e-08
389.8	5.5708e-08
390.0	5.2167e-08
390.2	4.8851e-08
390.4	4.5746e-08
390.6	4.2838e-08
390.8	4.0115e-08
391.0	3.7565e-08
391.2	3.5178e-08
391.4	3.2942e-08
391.6	3.0848e-08
391.8	2.8887e-08
392.0	2.7051e-08
392.2	2.6746e-08
392.4	2.6444e-08
392.6	2.6145e-08
392.8	2.585e-08
393.0	2.5556e-08
393.2	2.5264e-08
393.4	2.4974e-08
393.6	2.4688e-08
393.8	2.4406e-08
394.0	2.4126e-08
394.2	2.385e-08
394.4	2.3577e-08
394.6	2.3307e-08
394.8	2.304e-08
395.0	2.2776e-08
395.2	2.2515e-08
395.4	2.2257e-08
395.6	2.2003e-08
395.8	2.1751e-08
396.0	2.1501e-08
396.2	2.1255e-08
396.4	2.1012e-08
396.6	2.0771e-08
396.8	2.0563e-08
397.0	2.0359e-08
397.2	2.0158e-08
397.4	1.9958e-08
397.6	1.976e-08
397.8	1.9564e-08
398.0	1.937e-08
398.2	1.9178e-08
398.4	1.8988e-08
398.6	1.88e-08
398.8	1.8614e-08
399.0	1.8429e-08
399.2	1.8247e-08
399.4	1.8066e-08
399.6	1.7887e-08
399.8	1.771e-08
400.0	1.7534e-08
400.2	1.736e-08
400.4	1.7189e-08
400.6	1.7022e-08
400.8	1.6856e-08
401.0	1.6692e-08
401.2	1.653e-08
401.4	1.6369e-08
401.6	1.621e-08
401.8	1.6052e-08
402.0	1.5895e-08
402.2	1.5741e-08
402.4	1.5587e-08
402.6	1.5436e-08
402.8	1.5285e-08
403.0	1.5137e-08
403.2	1.4989e-08
403.4	1.4843e-08
403.6	1.4699e-08
403.8	1.4556e-08
404.0	1.4414e-08
404.2	1.4285e-08
404.4	1.416e-08
404.6	1.4037e-08
404.8	1.3914e-08
405.0	1.3793e-08
405.2	1.3673e-08
405.4	1.3553e-08
405.6	1.3435e-08
405.8	1.3318e-08
406.0	1.3202e-08
406.2	1.3087e-08
406.4	1.2973e-08
406.6	1.2859e-08
406.8	1.2747e-08
407.0	1.2636e-08
407.2	1.2526e-08
407.4	1.2417e-08
407.6	1.2308e-08
407.8	1.2204e-08
408.0	1.211e-08
408.2	1.2017e-08
408.4	1.1924e-08
408.6	1.1833e-08
408.8	1.1741e-08
409.0	1.1651e-08
409.2	1.1562e-08
409.4	1.1473e-08
409.6	1.1384e-08
409.8	1.1297e-08
410.0	1.121e-08
410.2	1.1124e-08
410.4	1.1038e-08
410.6	1.0953e-08
410.8	1.0869e-08
411.0	1.0785e-08
411.2	1.0702e-08
411.4	1.062e-08
411.6	1.1481e-08
411.8	1.2959e-08
412.0	1.4627e-08
412.2	1.651e-08
412.4	1.8635e-08
412.6	2.1034e-08
412.8	2.3742e-08
413.0	2.6798e-08
413.2	3.0247e-08
413.4	3.4141e-08
413.6	3.8536e-08
413.8	4.3496e-08
414.0	4.9095e-08
414.2	5.5415e-08
414.4	6.2549e-08
414.6	7.06e-08
414.8	7.9689e-08
415.0	8.9947e-08
415.2	1.0e-07
415.4	1.0e-07
415.6	1.0e-07
415.8	1.0e-07
416.0	1.0e-07
416.2	1.0e-07
416.4	1.0e-07
416.6	1.0e-07
416.8	1.0e-07
417.0	1.0e-07
417.2	1.0e-07
417.4	1.0e-07
417.6	1.0e-07
417.8	1.0e-07
418.0	1.0e-07
418.2	1.0e-07
418.4	1.0e-07
418.6	1.0e-07
418.8	1.0e-07
419.0	1.0e-07
419.2	1.0e-07
419.4	1.0e-07
419.6	1.0e-07
419.8	1.0e-07
420.0	1.0e-07
420.2	1.0e-07
420.4	1.0e-07
420.6	1.0e-07
420.8	1.0e-07
421.0	1.0e-07
421.2	1.0e-07
421.4	1.0e-07
421.6	1.0e-07
421.8	1.0e-07
422.0	1.0e-07
422.2	1.0e-07
422.4	1.0e-07
422.6	1.0e-07
422.8	1.0e-07
423.0	1.0e-07
423.2	1.0e-07
423.4	1.0e-07
423.6	1.0e-07
423.8	1.0e-07
424.0	1.0e-07
424.2	1.0e-07
424.4	1.0e-07
424.6	1.0e-07
424.8	1.0e-07
425.0	1.0e-07
425.2	1.0e-07
425.4	1.0e-07
425.6	1.0e-07
425.8	1.0e-07
426.0	1.0e-07
426.2	1.0e-07
426.4	1.0e-07
426.6	1.0e-07
426.8	1.0e-07
427.0	1.0e-07
427.2	1.0e-07
427.4	1.0e-07
427.6	1.0e-07
427.8	1.0e-07
428.0	1.0e-07
428.2	1.0e-07
428.4	1.0e-07
428.6	1.0091e-07
428.8	1.0213e-07
429.0	1.0338e-07
429.2	1.0464e-07
429.4	1.0591e-07
429.6	1.072e-07
429.8	1.0851e-07
430.0	1.0983e-07
430.2	1.1117e-07
430.4	1.1252e-07
430.6	1.1389e-07
430.8	1.1528e-07
431.0	1.1668e-07
431.2	1.181e-07
431.4	1.1954e-07
431.6	1.21e-07
431.8	1.2247e-07
432.0	1.2396e-07
432.2	1.2547e-07
432.4	1.27e-07
432.6	1.2855e-07
432.8	1.3011e-07
433.0	1.317e-07
433.2	1.333e-07
433.4	1.3492e-07
433.6	1.3954e-07
433.8	1.4545e-07
434.0	1.516e-07
434.2	1.5802e-07
434.4	1.647e-07
434.6	1.7167e-07
434.8	1.7894e-07
435.0	1.8651e-07
435.2	1.944e-07
435.4	2.0262e-07
435.6	2.112e-07
435.8	2.2013e-07
436.0	2.2945e-07
436.2	2.3915e-07
436.4	2.4927e-07
436.6	2.5982e-07
436.8	2.7081e-07
437.0	2.8227e-07
437.2	2.9421e-07
437.4	3.0666e-07
437.6	3.1964e-07
437.8	3.3316e-07
438.0	3.4726e-07
438.2	3.6195e-07
438.4	3.7727e-07
438.6	3.575e-07
438.8	3.2704e-07
439.0	2.9917e-07
439.2	2.7368e-07
439.4	2.5036e-07
439.6	2.2903e-07
439.8	2.0952e-07
440.0	1.9166e-07
440.2	1.7533e-07
440.4	1.6039e-07
440.6	1.4673e-07
440.8	1.3423e-07
441.0	1.2279e-07
441.2	1.1233e-07
441.4	1.0276e-07
441.6	9.4001e-08
441.8	8.5992e-08
442.0	7.8665e-08
442.2	7.1962e-08
442.4	6.5831e-08
442.6	6.0222e-08
442.8	5.5091e-08
443.0	5.0397e-08
443.2	4.6103e-08
443.4	4.2175e-08
443.6	4.1937e-08
443.8	4.3007e-08
444.0	4.4105e-08
444.2	4.5231e-08
444.4	4.6385e-08
444.6	4.7569e-08
444.8	4.8783e-08
445.0	5.0028e-08
445.2	5.1305e-08
445.4	5.2614e-08
445.6	5.3957e-08
445.8	5.5334e-08
446.0	5.6746e-08
446.2	5.8194e-08
446.4	5.968e-08
446.6	6.1203e-08
446.8	6.2765e-08
447.0	6.4367e-08
447.2	6.6009e-08
447.4	6.7694e-08
447.6	6.9422e-08
447.8	7.1194e-08
448.0	7.3011e-08
448.2	7.4874e-08
448.4	7.6785e-08
448.6	7.7893e-08
448.8	7.8699e-08
449.0	7.9514e-08
449.2	8.0337e-08
449.4	8.1168e-08
449.6	8.2008e-08
449.8	8.2857e-08
450.0	8.3715e-08
450.2	8.4582e-08
450.4	8.5457e-08
450.6	8.6342e-08
450.8	8.7236e-08
451.0	8.8139e-08
451.2	8.9051e-08
451.4	8.9973e-08
451.6	9.0904e-08
451.8	9.1845e-08
452.0	9.2796e-08
452.2	9.3757e-08
452.4	9.4727e-08
452.6	9.5708e-08
452.8	9.6698e-08
453.0	9.7699e-08
453.2	9.8711e-08
453.4	9.9733e-08
453.6	1.0e-07
453.8	1.0e-07
454.0	1.0e-07
454.2	1.0e-07
454.4	1.0e-07
454.6	1.0e-07
454.8	1.0e-07
455.0	1.0e-07
455.2	1.0e-07
455.4	1.0e-07
455.6	1.0e-07
455.8	1.0e-07
456.0	1.0e-07
456.2	1.0e-07
456.4	1.0e-07
456.6	1.0e-07
456.8	1.0e-07
457.0	1.0e-07
457.2	1.0e-07
457.4	1.0e-07
457.6	1.0e-07
457.8	1.0e-07
458.0	1.0e-07
458.2	1.0e-07
458.4	1.0e-07
458.6	9.7962e-08
458.8	9.531e-08
459.0	9.2729e-08
459.2	9.0218e-08
459.4	8.7775e-08
459.6	8.5399e-08
459.8	8.3086e-08
460.0	8.0837e-08
460.2	7.8648e-08
460.4	7.6518e-08
460.6	7.4446e-08
460.8	7.2431e-08
461.0	7.0469e-08
461.2	6.8561e-08
461.4	6.6705e-08
461.6	6.4899e-08
461.8	6.3141e-08
462.0	6.1432e-08
462.2	5.9768e-08
462.4	5.815e-08
462.6	5.6576e-08
462.8	5.5044e-08
463.0	5.3553e-08
463.2	5.2103e-08
463.4	5.0692e-08
463.6	4.832e-08
463.8	4.5737e-08
464.0	4.3292e-08
464.2	4.0977e-08
464.4	3.8787e-08
464.6	3.6713e-08
464.8	3.4751e-08
465.0	3.2893e-08
465.2	3.1134e-08
465.4	2.947e-08
465.6	2.7895e-08
465.8	2.6403e-08
466.0	2.4992e-08
466.2	2.3656e-08
466.4	2.2391e-08
466.6	2.1194e-08
466.8	2.0061e-08
467.0	1.8989e-08
467.2	1.7974e-08
467.4	1.7013e-08
467.6	1.6103e-08
467.8	1.5242e-08
468.0	1.4428e-08
468.2	1.3656e-08
468.4	1.2926e-08
468.6	1.3837e-08
468.8	1.5449e-08
469.0	1.7249e-08
469.2	1.9258e-08
469.4	2.1502e-08
469.6	2.4007e-08
469.8	2.6804e-08
470.0	2.9926e-08
470.2	3.3413e-08
470.4	3.7305e-08
470.6	4.1651e-08
470.8	4.6503e-08
471.0	5.1921e-08
471.2	5.797e-08
471.4	6.4723e-08
471.6	7.2264e-08
471.8	8.0682e-08
472.0	9.0082e-08
472.2	1.0058e-07
472.4	1.1229e-07
472.6	1.2538e-07
472.8	1.3998e-07
473.0	1.5629e-07
473.2	1.745e-07
473.4	1.9483e-07
473.6	2.0741e-07
473.8	2.1714e-07
474.0	2.2733e-07
474.2	2.38e-07
474.4	2.4917e-07
474.6	2.6086e-07
474.8	2.7311e-07
475.0	2.8592e-07
475.2	2.9934e-07
475.4	3.1339e-07
475.6	3.281e-07
475.8	3.435e-07
476.0	3.5962e-07
476.2	3.7649e-07
476.4	3.9416e-07
476.6	4.1266e-07
476.8	4.3202e-07
477.0	4.523e-07
477.2	4.7353e-07
477.4	4.9575e-07
477.6	5.1901e-07
477.8	5.4337e-07
478.0	5.6887e-07
478.2	5.9557e-07
478.4	6.2352e-07
478.6	6.3848e-07
478.8	6.4859e-07
479.0	6.5887e-07
479.2	6.693e-07
479.4	6.7991e-07
479.6	6.9068e-07
479.8	7.0162e-07
480.0	7.1273e-07
480.2	7.2403e-07
480.4	7.355e-07
480.6	7.4715e-07
480.8	7.5899e-07
481.0	7.7101e-07
481.2	7.8322e-07
481.4	7.9563e-07
481.6	8.0824e-07
481.8	8.2104e-07
482.0	8.088e-07
482.2	5.4533e-07
482.4	3.6768e-07
482.6	2.4791e-07
482.8	1.6715e-07
483.0	1.127e-07
483.2	7.5987e-08
483.4	5.1234e-08
483.6	3.4544e-08
483.8	7.4205e-08
484.0	1.594e-07
484.2	2.1365e-07
484.4	1.7002e-07
484.6	1.3529e-07
484.8	1.0979e-07
485.0	1.3767e-07
485.2	2.5181e-07
485.4	4.5591e-07
485.6	3.0156e-07
485.8	1.9947e-07
486.0	1.7145e-07
486.2	1.9412e-07
486.4	2.4584e-07
486.6	3.1134e-07
486.8	2.1619e-07
487.0	8.3297e-08
487.2	3.2093e-08
487.4	1.2615e-07
487.6	2.1709e-07
487.8	1.6414e-07
488.0	1.2411e-07
488.2	1.5344e-07
488.4	1.9065e-07
488.6	2.2289e-07
488.8	2.433e-07
489.0	2.1599e-07
489.2	1.9174e-07
489.4	1.5761e-07
489.6	1.1921e-07
489.8	9.0159e-08
490.0	1.2428e-07
490.2	1.578e-07
490.4	1.796e-07
490.6	2.0442e-07
490.8	2.3431e-07
491.0	2.6863e-07
491.2	1.397e-07
491.4	2.9248e-08
491.6	5.4989e-08
491.8	1.0338e-07
492.0	1.5506e-07
492.2	1.8553e-07
492.4	2.2199e-07
492.6	2.5707e-07
492.8	2.4762e-07
493.0	2.0066e-07
493.2	1.6261e-07
493.4	1.973e-07
493.6	2.3989e-07
493.8	1.8042e-07
494.0	7.9091e-08
494.2	5.091e-08
494.4	3.277e-08
494.6	4.3279e-08
494.8	1.226e-07
495.0	3.4731e-07
495.2	4.8505e-07
495.4	5.6664e-07
495.6	5.6504e-07
495.8	5.6345e-07
496.0	5.0854e-07
496.2	4.5732e-07
496.4	4.3065e-07
496.6	4.3082e-07
496.8	4.9944e-07
497.0	5.79e-07
497.2	6.9525e-07
497.4	8.6533e-07
497.6	1.077e-06
497.8	1.2948e-06
498.0	1.6621e-06
498.2	2.2772e-06
498.4	3.1199e-06
498.6	5.7048e-06
498.8	1.0477e-05
499.0	5.5515e-05
499.2	3.0331e-04
499.4	5.5924e-04
499.6	8.8769e-04
499.8	0.00154
500.0	0.00368
500.2	0.01166
500.4	0.04505
500.6	0.15007
500.8	0.37744
501.0	0.60603
501.2	0.75577
501.4	0.85117
501.6	0.90632
501.8	0.92734
502.0	0.93882
502.2	0.94576
502.4	0.94964
502.6	0.95246
502.8	0.95467
503.0	0.95754
503.2	0.96025
503.4	0.96196
503.6	0.96101
503.8	0.95961
504.0	0.95919
504.2	0.96002
504.4	0.96227
504.6	0.96478
504.8	0.96607
505.0	0.9651
505.2	0.96349
505.4	0.96283
505.6	0.96365
505.8	0.96475
506.0	0.96672
506.2	0.96735
506.4	0.96624
506.6	0.96385
506.8	0.96202
507.0	0.96095
507.2	0.96109
507.4	0.96271
507.6	0.9638
507.8	0.96383
508.0	0.96405
508.2	0.9624
508.4	0.96125
508.6	0.96066
508.8	0.96114
509.0	0.96342
509.2	0.96662
509.4	0.96896
509.6	0.97132
509.8	0.97145
510.0	0.97129
510.2	0.97111
510.4	0.97018
510.6	0.96916
510.8	0.9699
511.0	0.97015
511.2	0.97045
511.4	0.96934
511.6	0.96774
511.8	0.96742
512.0	0.96659
512.2	0.96669
512.4	0.9667
512.6	0.96735
512.8	0.96737
513.0	0.96786
513.2	0.96699
513.4	0.96569
513.6	0.96393
513.8	0.96326
514.0	0.96371
514.2	0.9644
514.4	0.96614
514.6	0.96807
514.8	0.97021
